Averaging Time (tau),Allan Deviation
0.01,0.00100401
0.02,0.000710267
0.03,0.000580095
0.04,0.000500526
0.05,0.00044651
0.06,0.000408053
0.07,0.00037821
0.08,0.000354319
0.09,0.000334701
0.1,0.000317527
0.11,0.000302562
0.12,0.000289786
0.13,0.000278735
0.14,0.000268761
0.15,0.000259766
0.16,0.000251583
0.17,0.000244105
0.18,0.000237323
0.19,0.000231079
0.2,0.000225295
0.21,0.00021989
0.22,0.000214801
0.23,0.000210039
0.24,0.000205639
0.25,0.000201601
0.26,0.00019781
0.27,0.000194315
0.28,0.000191037
0.29,0.000187936
0.3,0.000185059
0.31,0.000182347
0.32,0.000179832
0.33,0.000177486
0.34,0.000175213
0.35,0.000173037
0.36,0.000170997
0.37,0.000169061
0.38,0.000167233
0.39,0.000165475
0.4,0.000163813
0.41,0.000162235
0.42,0.000160741
0.43,0.000159321
0.44,0.000157992
0.45,0.000156734
0.46,0.000155485
0.47,0.000154282
0.48,0.000153073
0.49,0.000151866
0.5,0.0001507
0.51,0.000149574
0.52,0.000148456
0.53,0.000147378
0.54,0.000146354
0.55,0.000145363
0.56,0.000144402
0.57,0.000143474
0.58,0.000142576
0.59,0.000141699
0.6,0.000140851
0.61,0.000140046
0.62,0.000139266
0.63,0.00013851
0.64,0.000137772
0.65,0.000137049
0.66,0.000136355
0.67,0.000135673
0.68,0.000135024
0.69,0.000134388
0.7,0.000133788
0.71,0.000133202
0.72,0.00013264
0.73,0.00013211
0.74,0.000131596
0.75,0.000131108
0.76,0.000130628
0.77,0.000130169
0.78,0.000129707
0.79,0.00012926
0.8,0.000128834
0.81,0.000128425
0.82,0.00012803
0.83,0.000127649
0.84,0.000127279
0.85,0.000126907
0.86,0.000126541
0.87,0.000126184
0.88,0.000125841
0.89,0.000125499
0.9,0.000125169
0.91,0.000124845
0.92,0.000124542
0.93,0.000124258
0.94,0.000123994
0.95,0.000123742
0.96,0.000123503
0.97,0.000123285
0.98,0.000123085
0.99,0.000122889
1,0.000122699
1.01,0.000122513
1.02,0.000122326
1.03,0.000122153
1.04,0.000121985
1.05,0.000121823
1.06,0.000121661
1.07,0.000121503
1.08,0.00012136
1.09,0.000121223
1.1,0.000121089
1.11,0.000120956
1.12,0.000120821
1.13,0.000120681
1.14,0.000120554
1.15,0.000120437
1.16,0.000120322
1.17,0.000120213
1.18,0.000120112
1.19,0.000120007
1.2,0.000119902
1.21,0.000119796
1.22,0.000119695
1.23,0.000119598
1.24,0.000119498
1.25,0.000119405
1.26,0.000119318
1.27,0.000119234
1.28,0.000119151
1.29,0.000119072
1.3,0.000119001
1.31,0.000118928
1.32,0.000118863
1.33,0.000118813
1.34,0.000118766
1.35,0.00011872
1.36,0.000118682
1.37,0.000118649
1.38,0.000118617
1.39,0.000118588
1.4,0.000118563
1.41,0.000118542
1.42,0.000118525
1.43,0.000118511
1.44,0.000118496
1.45,0.000118483
1.46,0.000118476
1.47,0.00011847
1.48,0.000118467
1.49,0.000118466
1.5,0.000118471
1.51,0.000118478
1.52,0.000118493
1.53,0.000118509
1.54,0.000118531
1.55,0.000118553
1.56,0.000118579
1.57,0.000118607
1.58,0.000118636
1.59,0.000118666
1.6,0.000118699
1.61,0.00011873
1.62,0.000118771
1.63,0.000118816
1.64,0.000118865
1.65,0.000118917
1.66,0.000118967
1.67,0.00011902
1.68,0.000119078
1.69,0.000119139
1.7,0.000119201
1.71,0.000119269
1.72,0.000119341
1.73,0.000119415
1.74,0.000119485
1.75,0.000119559
1.76,0.000119636
1.77,0.000119716
1.78,0.000119796
1.79,0.00011988
1.8,0.000119966
1.81,0.000120053
1.82,0.00012014
1.83,0.000120225
1.84,0.00012031
1.85,0.000120397
1.86,0.000120484
1.87,0.000120573
1.88,0.000120662
1.89,0.000120754
1.9,0.000120847
1.91,0.00012094
1.92,0.000121034
1.93,0.00012113
1.94,0.000121224
1.95,0.00012132
1.96,0.000121417
1.97,0.000121518
1.98,0.00012162
1.99,0.000121724
2,0.000121828
2.01,0.000121933
2.02,0.000122041
2.03,0.000122153
2.04,0.000122266
2.05,0.000122379
2.06,0.000122493
2.07,0.000122609
2.08,0.000122728
2.09,0.000122847
2.1,0.000122968
2.11,0.00012309
2.12,0.000123212
2.13,0.000123336
2.14,0.000123461
2.15,0.000123585
2.16,0.000123709
2.17,0.000123834
2.18,0.000123959
2.19,0.000124085
2.2,0.000124213
2.21,0.000124344
2.22,0.000124476
2.23,0.000124607
2.24,0.000124739
2.25,0.000124875
2.26,0.000125009
2.27,0.000125144
2.28,0.000125279
2.29,0.000125415
2.3,0.000125551
2.31,0.000125688
2.32,0.000125825
2.33,0.000125963
2.34,0.000126101
2.35,0.00012624
2.36,0.000126379
2.37,0.000126518
2.38,0.000126659
2.39,0.000126799
2.4,0.000126939
2.41,0.00012708
2.42,0.000127223
2.43,0.000127367
2.44,0.000127514
2.45,0.00012766
2.46,0.000127807
2.47,0.000127958
2.48,0.00012811
2.49,0.000128264
2.5,0.000128418
2.51,0.000128571
2.52,0.000128725
2.53,0.00012888
2.54,0.000129035
2.55,0.000129191
2.56,0.000129348
2.57,0.000129504
2.58,0.00012966
2.59,0.000129817
2.6,0.000129975
2.61,0.000130133
2.62,0.000130291
2.63,0.000130449
2.64,0.000130605
2.65,0.000130762
2.66,0.000130918
2.67,0.000131073
2.68,0.000131229
2.69,0.000131386
2.7,0.000131541
2.71,0.000131697
2.72,0.000131854
2.73,0.00013201
2.74,0.000132166
2.75,0.000132322
2.76,0.000132477
2.77,0.000132632
2.78,0.000132787
2.79,0.000132941
2.8,0.000133096
2.81,0.000133251
2.82,0.000133407
2.83,0.000133562
2.84,0.000133716
2.85,0.000133872
2.86,0.000134028
2.87,0.000134184
2.88,0.00013434
2.89,0.000134496
2.9,0.000134653
2.91,0.000134811
2.92,0.000134968
2.93,0.000135125
2.94,0.000135282
2.95,0.000135439
2.96,0.000135594
2.97,0.00013575
2.98,0.000135906
2.99,0.000136061
3,0.000136217
3.01,0.000136374
3.02,0.000136531
3.03,0.000136687
3.04,0.000136842
3.05,0.000136998
3.06,0.000137154
3.07,0.000137309
3.08,0.000137464
3.09,0.000137621
3.1,0.000137778
3.11,0.000137935
3.12,0.000138091
3.13,0.000138247
3.14,0.000138404
3.15,0.00013856
3.16,0.000138716
3.17,0.000138872
3.18,0.000139028
3.19,0.000139184
3.2,0.00013934
3.21,0.000139496
3.22,0.000139652
3.23,0.000139806
3.24,0.000139961
3.25,0.000140115
3.26,0.000140268
3.27,0.00014042
3.28,0.000140572
3.29,0.000140724
3.3,0.000140876
3.31,0.000141029
3.32,0.000141182
3.33,0.000141335
3.34,0.000141487
3.35,0.00014164
3.36,0.000141794
3.37,0.000141948
3.38,0.000142103
3.39,0.000142258
3.4,0.000142412
3.41,0.000142566
3.42,0.000142719
3.43,0.000142872
3.44,0.000143025
3.45,0.000143176
3.46,0.000143329
3.47,0.000143482
3.48,0.000143635
3.49,0.000143787
3.5,0.000143941
3.51,0.000144094
3.52,0.000144248
3.53,0.000144402
3.54,0.000144556
3.55,0.000144711
3.56,0.000144864
3.57,0.000145018
3.58,0.000145171
3.59,0.000145324
3.6,0.000145476
3.61,0.000145629
3.62,0.000145782
3.63,0.000145934
3.64,0.000146087
3.65,0.00014624
3.66,0.000146392
3.67,0.000146544
3.68,0.000146697
3.69,0.000146849
3.7,0.000147001
3.71,0.000147154
3.72,0.000147306
3.73,0.000147459
3.74,0.000147613
3.75,0.000147766
3.76,0.000147919
3.77,0.000148072
3.78,0.000148225
3.79,0.000148378
3.8,0.000148531
3.81,0.000148684
3.82,0.000148836
3.83,0.000148989
3.84,0.000149142
3.85,0.000149294
3.86,0.000149446
3.87,0.000149598
3.88,0.00014975
3.89,0.000149902
3.9,0.000150053
3.91,0.000150204
3.92,0.000150355
3.93,0.000150505
3.94,0.000150655
3.95,0.000150806
3.96,0.000150957
3.97,0.000151107
3.98,0.000151258
3.99,0.000151409
4,0.00015156
4.01,0.000151711
4.02,0.000151862
4.03,0.000152012
4.04,0.000152162
4.05,0.000152311
4.06,0.000152461
4.07,0.000152611
4.08,0.000152761
4.09,0.00015291
4.1,0.000153059
4.11,0.000153208
4.12,0.000153356
4.13,0.000153505
4.14,0.000153654
4.15,0.000153803
4.16,0.000153952
4.17,0.000154101
4.18,0.000154249
4.19,0.000154398
4.2,0.000154546
4.21,0.000154695
4.22,0.000154843
4.23,0.000154991
4.24,0.000155139
4.25,0.000155287
4.26,0.000155435
4.27,0.000155583
4.28,0.000155731
4.29,0.000155878
4.3,0.000156026
4.31,0.000156173
4.32,0.00015632
4.33,0.000156466
4.34,0.000156613
4.35,0.000156759
4.36,0.000156905
4.37,0.000157051
4.38,0.000157196
4.39,0.000157341
4.4,0.000157486
4.41,0.00015763
4.42,0.000157774
4.43,0.000157918
4.44,0.000158062
4.45,0.000158206
4.46,0.00015835
4.47,0.000158494
4.48,0.000158638
4.49,0.000158782
4.5,0.000158925
4.51,0.000159069
4.52,0.000159212
4.53,0.000159356
4.54,0.000159499
4.55,0.000159641
4.56,0.000159784
4.57,0.000159927
4.58,0.000160069
4.59,0.000160211
4.6,0.000160353
4.61,0.000160495
4.62,0.000160637
4.63,0.000160779
4.64,0.000160921
4.65,0.000161063
4.66,0.000161204
4.67,0.000161345
4.68,0.000161486
4.69,0.000161627
4.7,0.000161767
4.71,0.000161908
4.72,0.000162048
4.73,0.000162188
4.74,0.000162328
4.75,0.000162468
4.76,0.000162608
4.77,0.000162747
4.78,0.000162887
4.79,0.000163026
4.8,0.000163166
4.81,0.000163305
4.82,0.000163444
4.83,0.000163583
4.84,0.000163722
4.85,0.00016386
4.86,0.000163998
4.87,0.000164136
4.88,0.000164274
4.89,0.000164411
4.9,0.000164548
4.91,0.000164684
4.92,0.00016482
4.93,0.000164955
4.94,0.00016509
4.95,0.000165226
4.96,0.000165361
4.97,0.000165496
4.98,0.000165631
4.99,0.000165766
5,0.000165901
5.01,0.000166036
5.02,0.000166171
5.03,0.000166305
5.04,0.000166439
5.05,0.000166573
5.06,0.000166707
5.07,0.000166842
5.08,0.000166976
5.09,0.000167109
5.1,0.000167243
5.11,0.000167376
5.12,0.000167509
5.13,0.000167642
5.14,0.000167774
5.15,0.000167907
5.16,0.000168039
5.17,0.000168171
5.18,0.000168303
5.19,0.000168436
5.2,0.000168568
5.21,0.0001687
5.22,0.000168832
5.23,0.000168965
5.24,0.000169097
5.25,0.000169229
5.26,0.000169361
5.27,0.000169494
5.28,0.000169625
5.29,0.000169757
5.3,0.000169889
5.31,0.00017002
5.32,0.000170151
5.33,0.000170282
5.34,0.000170412
5.35,0.000170543
5.36,0.000170674
5.37,0.000170804
5.38,0.000170935
5.39,0.000171065
5.4,0.000171195
5.41,0.000171325
5.42,0.000171455
5.43,0.000171584
5.44,0.000171713
5.45,0.000171843
5.46,0.000171972
5.47,0.000172101
5.48,0.00017223
5.49,0.000172359
5.5,0.000172488
5.51,0.000172617
5.52,0.000172746
5.53,0.000172874
5.54,0.000173002
5.55,0.000173131
5.56,0.000173259
5.57,0.000173387
5.58,0.000173515
5.59,0.000173643
5.6,0.000173771
5.61,0.000173898
5.62,0.000174026
5.63,0.000174153
5.64,0.00017428
5.65,0.000174407
5.66,0.000174533
5.67,0.00017466
5.68,0.000174786
5.69,0.000174912
5.7,0.000175038
5.71,0.000175164
5.72,0.000175289
5.73,0.000175415
5.74,0.00017554
5.75,0.000175666
5.76,0.000175791
5.77,0.000175916
5.78,0.000176041
5.79,0.000176165
5.8,0.00017629
5.81,0.000176413
5.82,0.000176537
5.83,0.000176661
5.84,0.000176784
5.85,0.000176908
5.86,0.000177031
5.87,0.000177155
5.88,0.000177278
5.89,0.000177401
5.9,0.000177524
5.91,0.000177647
5.92,0.00017777
5.93,0.000177892
5.94,0.000178015
5.95,0.000178137
5.96,0.000178259
5.97,0.000178381
5.98,0.000178503
5.99,0.000178624
6,0.000178746
6.01,0.000178867
6.02,0.000178988
6.03,0.000179109
6.04,0.000179229
6.05,0.000179349
6.06,0.00017947
6.07,0.00017959
6.08,0.00017971
6.09,0.000179829
6.1,0.000179949
6.11,0.000180068
6.12,0.000180187
6.13,0.000180306
6.14,0.000180425
6.15,0.000180544
6.16,0.000180663
6.17,0.000180782
6.18,0.0001809
6.19,0.000181018
6.2,0.000181136
6.21,0.000181254
6.22,0.000181372
6.23,0.000181489
6.24,0.000181607
6.25,0.000181724
6.26,0.00018184
6.27,0.000181957
6.28,0.000182074
6.29,0.00018219
6.3,0.000182306
6.31,0.000182422
6.32,0.000182538
6.33,0.000182654
6.34,0.00018277
6.35,0.000182885
6.36,0.000183
6.37,0.000183116
6.38,0.00018323
6.39,0.000183345
6.4,0.000183459
6.41,0.000183574
6.42,0.000183688
6.43,0.000183802
6.44,0.000183916
6.45,0.00018403
6.46,0.000184144
6.47,0.000184258
6.48,0.000184371
6.49,0.000184485
6.5,0.000184598
6.51,0.000184711
6.52,0.000184825
6.53,0.000184938
6.54,0.000185051
6.55,0.000185164
6.56,0.000185276
6.57,0.000185389
6.58,0.000185502
6.59,0.000185615
6.6,0.000185728
6.61,0.00018584
6.62,0.000185952
6.63,0.000186064
6.64,0.000186176
6.65,0.000186287
6.66,0.000186399
6.67,0.00018651
6.68,0.000186622
6.69,0.000186733
6.7,0.000186844
6.71,0.000186955
6.72,0.000187066
6.73,0.000187176
6.74,0.000187286
6.75,0.000187396
6.76,0.000187506
6.77,0.000187616
6.78,0.000187725
6.79,0.000187835
6.8,0.000187945
6.81,0.000188054
6.82,0.000188163
6.83,0.000188272
6.84,0.000188381
6.85,0.00018849
6.86,0.000188599
6.87,0.000188707
6.88,0.000188816
6.89,0.000188925
6.9,0.000189033
6.91,0.000189141
6.92,0.000189248
6.93,0.000189356
6.94,0.000189463
6.95,0.00018957
6.96,0.000189677
6.97,0.000189784
6.98,0.00018989
6.99,0.000189997
7,0.000190103
7.01,0.000190209
7.02,0.000190315
7.03,0.000190421
7.04,0.000190526
7.05,0.000190632
7.06,0.000190737
7.07,0.000190842
7.08,0.000190947
7.09,0.000191052
7.1,0.000191156
7.11,0.000191261
7.12,0.000191365
7.13,0.00019147
7.14,0.000191574
7.15,0.000191678
7.16,0.000191782
7.17,0.000191885
7.18,0.000191989
7.19,0.000192093
7.2,0.000192196
7.21,0.000192299
7.22,0.000192402
7.23,0.000192504
7.24,0.000192607
7.25,0.00019271
7.26,0.000192812
7.27,0.000192915
7.28,0.000193017
7.29,0.000193119
7.3,0.00019322
7.31,0.000193322
7.32,0.000193424
7.33,0.000193525
7.34,0.000193626
7.35,0.000193728
7.36,0.000193829
7.37,0.00019393
7.38,0.000194031
7.39,0.000194131
7.4,0.000194231
7.41,0.000194332
7.42,0.000194432
7.43,0.000194531
7.44,0.000194631
7.45,0.000194731
7.46,0.00019483
7.47,0.000194929
7.48,0.000195028
7.49,0.000195127
7.5,0.000195226
7.51,0.000195325
7.52,0.000195424
7.53,0.000195522
7.54,0.00019562
7.55,0.000195718
7.56,0.000195816
7.57,0.000195914
7.58,0.000196012
7.59,0.000196109
7.6,0.000196207
7.61,0.000196304
7.62,0.000196402
7.63,0.000196499
7.64,0.000196596
7.65,0.000196693
7.66,0.000196789
7.67,0.000196886
7.68,0.000196982
7.69,0.000197079
7.7,0.000197175
7.71,0.000197271
7.72,0.000197367
7.73,0.000197463
7.74,0.000197559
7.75,0.000197655
7.76,0.00019775
7.77,0.000197846
7.78,0.000197941
7.79,0.000198037
7.8,0.000198132
7.81,0.000198228
7.82,0.000198323
7.83,0.000198419
7.84,0.000198514
7.85,0.000198609
7.86,0.000198704
7.87,0.000198798
7.88,0.000198893
7.89,0.000198988
7.9,0.000199082
7.91,0.000199177
7.92,0.000199271
7.93,0.000199365
7.94,0.00019946
7.95,0.000199554
7.96,0.000199648
7.97,0.000199742
7.98,0.000199835
7.99,0.000199929
8,0.000200022
8.01,0.000200116
8.02,0.000200209
8.03,0.000200302
8.04,0.000200395
8.05,0.000200489
8.06,0.000200582
8.07,0.000200675
8.08,0.000200768
8.09,0.00020086
8.1,0.000200953
8.11,0.000201045
8.12,0.000201138
8.13,0.00020123
8.14,0.000201322
8.15,0.000201414
8.16,0.000201506
8.17,0.000201598
8.18,0.00020169
8.19,0.000201782
8.2,0.000201874
8.21,0.000201965
8.22,0.000202057
8.23,0.000202149
8.24,0.00020224
8.25,0.000202332
8.26,0.000202423
8.27,0.000202514
8.28,0.000202605
8.29,0.000202696
8.3,0.000202787
8.31,0.000202877
8.32,0.000202968
8.33,0.000203059
8.34,0.00020315
8.35,0.00020324
8.36,0.00020333
8.37,0.000203421
8.38,0.000203511
8.39,0.0002036
8.4,0.00020369
8.41,0.00020378
8.42,0.00020387
8.43,0.00020396
8.44,0.00020405
8.45,0.000204139
8.46,0.000204229
8.47,0.000204318
8.48,0.000204407
8.49,0.000204497
8.5,0.000204586
8.51,0.000204674
8.52,0.000204763
8.53,0.000204851
8.54,0.00020494
8.55,0.000205028
8.56,0.000205116
8.57,0.000205204
8.58,0.000205292
8.59,0.00020538
8.6,0.000205468
8.61,0.000205556
8.62,0.000205644
8.63,0.000205732
8.64,0.000205819
8.65,0.000205907
8.66,0.000205995
8.67,0.000206083
8.68,0.000206171
8.69,0.000206259
8.7,0.000206346
8.71,0.000206434
8.72,0.000206522
8.73,0.000206609
8.74,0.000206696
8.75,0.000206784
8.76,0.000206871
8.77,0.000206958
8.78,0.000207045
8.79,0.000207132
8.8,0.000207219
8.81,0.000207306
8.82,0.000207392
8.83,0.000207479
8.84,0.000207566
8.85,0.000207652
8.86,0.000207738
8.87,0.000207824
8.88,0.000207911
8.89,0.000207997
8.9,0.000208083
8.91,0.000208169
8.92,0.000208255
8.93,0.00020834
8.94,0.000208426
8.95,0.000208512
8.96,0.000208597
8.97,0.000208682
8.98,0.000208768
8.99,0.000208853
9,0.000208938
9.01,0.000209023
9.02,0.000209108
9.03,0.000209193
9.04,0.000209278
9.05,0.000209363
9.06,0.000209448
9.07,0.000209532
9.08,0.000209617
9.09,0.000209702
9.1,0.000209786
9.11,0.00020987
9.12,0.000209955
9.13,0.000210039
9.14,0.000210123
9.15,0.000210207
9.16,0.000210291
9.17,0.000210375
9.18,0.000210459
9.19,0.000210542
9.2,0.000210626
9.21,0.00021071
9.22,0.000210793
9.23,0.000210876
9.24,0.000210959
9.25,0.000211042
9.26,0.000211125
9.27,0.000211207
9.28,0.00021129
9.29,0.000211373
9.3,0.000211455
9.31,0.000211538
9.32,0.000211621
9.33,0.000211703
9.34,0.000211786
9.35,0.000211868
9.36,0.00021195
9.37,0.000212032
9.38,0.000212114
9.39,0.000212196
9.4,0.000212278
9.41,0.00021236
9.42,0.000212442
9.43,0.000212524
9.44,0.000212605
9.45,0.000212687
9.46,0.000212769
9.47,0.00021285
9.48,0.000212932
9.49,0.000213013
9.5,0.000213094
9.51,0.000213176
9.52,0.000213257
9.53,0.000213338
9.54,0.000213419
9.55,0.0002135
9.56,0.000213581
9.57,0.000213662
9.58,0.000213743
9.59,0.000213824
9.6,0.000213905
9.61,0.000213985
9.62,0.000214066
9.63,0.000214147
9.64,0.000214227
9.65,0.000214308
9.66,0.000214388
9.67,0.000214468
9.68,0.000214549
9.69,0.000214629
9.7,0.00021471
9.71,0.00021479
9.72,0.00021487
9.73,0.000214951
9.74,0.000215031
9.75,0.000215111
9.76,0.000215191
9.77,0.000215271
9.78,0.000215351
9.79,0.000215431
9.8,0.000215511
9.81,0.000215591
9.82,0.000215671
9.83,0.000215751
9.84,0.000215831
9.85,0.000215911
9.86,0.000215991
9.87,0.00021607
9.88,0.00021615
9.89,0.000216229
9.9,0.000216309
9.91,0.000216388
9.92,0.000216467
9.93,0.000216546
9.94,0.000216625
9.95,0.000216704
9.96,0.000216783
9.97,0.000216862
9.98,0.000216941
9.99,0.00021702
10,0.000217099
10.01,0.000217177
10.02,0.000217256
10.03,0.000217334
10.04,0.000217412
10.05,0.00021749
10.06,0.000217569
10.07,0.000217647
10.08,0.000217725
10.09,0.000217802
10.1,0.00021788
10.11,0.000217958
10.12,0.000218035
10.13,0.000218113
10.14,0.00021819
10.15,0.000218267
10.16,0.000218345
10.17,0.000218422
10.18,0.000218499
10.19,0.000218576
10.2,0.000218654
10.21,0.000218731
10.22,0.000218808
10.23,0.000218885
10.24,0.000218962
10.25,0.000219038
10.26,0.000219115
10.27,0.000219192
10.28,0.000219269
10.29,0.000219345
10.3,0.000219422
10.31,0.000219498
10.32,0.000219575
10.33,0.000219651
10.34,0.000219727
10.35,0.000219804
10.36,0.00021988
10.37,0.000219956
10.38,0.000220032
10.39,0.000220108
10.4,0.000220184
10.41,0.00022026
10.42,0.000220336
10.43,0.000220411
10.44,0.000220487
10.45,0.000220562
10.46,0.000220638
10.47,0.000220713
10.48,0.000220789
10.49,0.000220864
10.5,0.000220939
10.51,0.000221014
10.52,0.000221089
10.53,0.000221164
10.54,0.000221239
10.55,0.000221313
10.56,0.000221388
10.57,0.000221463
10.58,0.000221538
10.59,0.000221612
10.6,0.000221687
10.61,0.000221762
10.62,0.000221836
10.63,0.000221911
10.64,0.000221985
10.65,0.00022206
10.66,0.000222134
10.67,0.000222209
10.68,0.000222283
10.69,0.000222357
10.7,0.000222431
10.71,0.000222506
10.72,0.00022258
10.73,0.000222654
10.74,0.000222728
10.75,0.000222802
10.76,0.000222876
10.77,0.000222949
10.78,0.000223023
10.79,0.000223097
10.8,0.000223171
10.81,0.000223245
10.82,0.000223318
10.83,0.000223392
10.84,0.000223466
10.85,0.00022354
10.86,0.000223614
10.87,0.000223688
10.88,0.000223761
10.89,0.000223835
10.9,0.000223909
10.91,0.000223982
10.92,0.000224056
10.93,0.00022413
10.94,0.000224203
10.95,0.000224277
10.96,0.000224351
10.97,0.000224424
10.98,0.000224498
10.99,0.000224571
11,0.000224644
11.01,0.000224718
11.02,0.000224791
11.03,0.000224864
11.04,0.000224938
11.05,0.000225011
11.06,0.000225084
11.07,0.000225158
11.08,0.000225231
11.09,0.000225304
11.1,0.000225377
11.11,0.00022545
11.12,0.000225522
11.13,0.000225595
11.14,0.000225668
11.15,0.000225741
11.16,0.000225814
11.17,0.000225886
11.18,0.000225959
11.19,0.000226032
11.2,0.000226104
11.21,0.000226177
11.22,0.00022625
11.23,0.000226322
11.24,0.000226395
11.25,0.000226467
11.26,0.00022654
11.27,0.000226612
11.28,0.000226685
11.29,0.000226757
11.3,0.00022683
11.31,0.000226902
11.32,0.000226974
11.33,0.000227047
11.34,0.000227119
11.35,0.000227192
11.36,0.000227264
11.37,0.000227337
11.38,0.000227409
11.39,0.000227482
11.4,0.000227554
11.41,0.000227626
11.42,0.000227699
11.43,0.000227771
11.44,0.000227843
11.45,0.000227915
11.46,0.000227987
11.47,0.000228059
11.48,0.000228131
11.49,0.000228203
11.5,0.000228275
11.51,0.000228347
11.52,0.000228419
11.53,0.00022849
11.54,0.000228562
11.55,0.000228634
11.56,0.000228706
11.57,0.000228778
11.58,0.00022885
11.59,0.000228921
11.6,0.000228993
11.61,0.000229065
11.62,0.000229137
11.63,0.000229208
11.64,0.00022928
11.65,0.000229352
11.66,0.000229423
11.67,0.000229495
11.68,0.000229567
11.69,0.000229639
11.7,0.000229711
11.71,0.000229782
11.72,0.000229854
11.73,0.000229926
11.74,0.000229998
11.75,0.00023007
11.76,0.000230141
11.77,0.000230213
11.78,0.000230285
11.79,0.000230357
